wavelength,BLUE,GREEN,RED,NIR,SWIR1,SWIR2
0.41,0,0,0,0,0,0
0.411,0,0,0,0,0,0
0.412,0,0,0,0,0,0
0.413,0,0,0,0,0,0
0.414,0,0,0,0,0,0
0.415,0,0,0,0,0,0
0.416,0,0,0,0,0,0
0.417,0,0,0,0,0,0
0.418,0,0,0,0,0,0
0.419,0,0,0,0,0,0
0.42,0,0,0,0,0,0
0.421,0,0,0,0,0,0
0.422,0,0,0,0,0,0
0.423,0,0,0,0,0,0
0.424,0,0,0,0,0,0
0.425,0,0,0,0,0,0
0.426,0,0,0,0,0,0
0.427,0,0,0,0,0,0
0.428,0,0,0,0,0,0
0.429,0,0,0,0,0,0
0.43,0,0,0,0,0,0
0.431,0,0,0,0,0,0
0.432,0,0,0,0,0,0
0.433,0,0,0,0,0,0
0.434,7.20E-03,0,0,0,0,0
0.435,2.10E-02,0,0,0,0,0
0.436,3.65E-02,0,0,0,0,0
0.437,6.87E-02,0,0,0,0,0
0.438,1.27E-01,0,0,0,0,0
0.439,2.21E-01,0,0,0,0,0
0.44,3.64E-01,0,0,0,0,0
0.441,5.25E-01,0,0,0,0,0
0.442,6.60E-01,0,0,0,0,0
0.443,7.46E-01,0,0,0,0,0
0.444,7.79E-01,0,0,0,0,0
0.445,8.05E-01,0,0,0,0,0
0.446,8.37E-01,0,0,0,0,0
0.447,8.57E-01,0,0,0,0,0
0.448,8.59E-01,0,0,0,0,0
0.449,8.52E-01,0,0,0,0,0
0.45,8.42E-01,0,0,0,0,0
0.451,8.29E-01,0,0,0,0,0
0.452,8.06E-01,0,0,0,0,0
0.453,8.03E-01,0,0,0,0,0
0.454,7.93E-01,0,0,0,0,0
0.455,7.88E-01,0,0,0,0,0
0.456,8.06E-01,0,0,0,0,0
0.457,8.43E-01,0,0,0,0,0
0.458,8.81E-01,0,0,0,0,0
0.459,8.94E-01,0,0,0,0,0
0.46,9.09E-01,0,0,0,0,0
0.461,9.08E-01,0,0,0,0,0
0.462,8.99E-01,0,0,0,0,0
0.463,8.96E-01,0,0,0,0,0
0.464,8.89E-01,0,0,0,0,0
0.465,8.78E-01,0,0,0,0,0
0.466,8.62E-01,0,0,0,0,0
0.467,8.52E-01,0,0,0,0,0
0.468,8.53E-01,0,0,0,0,0
0.469,8.70E-01,0,0,0,0,0
0.47,8.78E-01,0,0,0,0,0
0.471,8.84E-01,0,0,0,0,0
0.472,8.93E-01,0,0,0,0,0
0.473,8.89E-01,0,0,0,0,0
0.474,8.81E-01,0,0,0,0,0
0.475,8.94E-01,0,0,0,0,0
0.476,9.16E-01,0,0,0,0,0
0.477,9.30E-01,0,0,0,0,0
0.478,9.42E-01,0,0,0,0,0
0.479,9.56E-01,0,0,0,0,0
0.48,9.54E-01,0,0,0,0,0
0.481,9.50E-01,0,0,0,0,0
0.482,9.54E-01,0,0,0,0,0
0.483,9.67E-01,0,0,0,0,0
0.484,9.80E-01,0,0,0,0,0
0.485,9.78E-01,0,0,0,0,0
0.486,9.74E-01,0,0,0,0,0
0.487,9.75E-01,0,0,0,0,0
0.488,9.68E-01,0,0,0,0,0
0.489,9.61E-01,0,0,0,0,0
0.49,9.61E-01,0,0,0,0,0
0.491,9.55E-01,0,0,0,0,0
0.492,9.61E-01,0,0,0,0,0
0.493,9.73E-01,0,0,0,0,0
0.494,9.83E-01,0,0,0,0,0
0.495,9.91E-01,0,0,0,0,0
0.496,9.86E-01,0,0,0,0,0
0.497,9.90E-01,0,0,0,0,0
0.498,9.97E-01,0,0,0,0,0
0.499,9.96E-01,0,0,0,0,0
0.5,9.90E-01,0.00074,0,0,0,0
0.501,9.84E-01,0.00095,0,0,0,0
0.502,9.79E-01,0.00145,0,0,0,0
0.503,9.80E-01,0.002,0,0,0,0
0.504,9.79E-01,0.00245,0,0,0,0
0.505,9.73E-01,0.0039,0,0,0,0
0.506,9.66E-01,0.0068,0,0,0,0
0.507,9.69E-01,0.01148,0,0,0,0
0.508,9.69E-01,0.01859,0,0,0,0
0.509,9.68E-01,0.02468,0,0,0,0
0.51,9.47E-01,0.03275,0,0,0,0
0.511,8.96E-01,0.04955,0,0,0,0
0.512,7.77E-01,0.0726,0,0,0,0
0.513,5.95E-01,0.1051,0,0,0,0
0.514,3.99E-01,0.1476,0,0,0,0
0.515,2.29E-01,0.2019,0,0,0,0
0.516,1.15E-01,0.2684,0,0,0,0
0.517,5.64E-02,0.344,0,0,0,0
0.518,2.84E-02,0.4258,0,0,0,0
0.519,1.45E-02,0.508,0,0,0,0
0.52,4.95E-03,0.58305,0,0,0,0
0.521,0,0.64575,0,0,0,0
0.522,0,0.694,0,0,0,0
0.523,0,0.72815,0,0,0,0
0.524,0,0.7502,0,0,0,0
0.525,0,0.7635,0,0,0,0
0.526,0,0.7735,0,0,0,0
0.527,0,0.78395,0,0,0,0
0.528,0,0.79675,0,0,0,0
0.529,0,0.81265,0,0,0,0
0.53,0,0.831,0,0,0,0
0.531,0,0.85055,0,0,0,0
0.532,0,0.86865,0,0,0,0
0.533,0,0.88475,0,0,0,0
0.534,0,0.8984,0,0,0,0
0.535,0,0.90995,0,0,0,0
0.536,0,0.9196,0,0,0,0
0.537,0,0.92805,0,0,0,0
0.538,0,0.93705,0,0,0,0
0.539,0,0.94425,0,0,0,0
0.54,0,0.9488,0,0,0,0
0.541,0,0.9519,0,0,0,0
0.542,0,0.95255,0,0,0,0
0.543,0,0.95155,0,0,0,0
0.544,0,0.95145,0,0,0,0
0.545,0,0.95155,0,0,0,0
0.546,0,0.951,0,0,0,0
0.547,0,0.95145,0,0,0,0
0.548,0,0.952,0,0,0,0
0.549,0,0.95245,0,0,0,0
0.55,0,0.9521,0,0,0,0
0.551,0,0.95055,0,0,0,0
0.552,0,0.95,0,0,0,0
0.553,0,0.95045,0,0,0,0
0.554,0,0.95235,0,0,0,0
0.555,0,0.9567,0,0,0,0
0.556,0,0.9627,0,0,0,0
0.557,0,0.9669,0,0,0,0
0.558,0,0.96665,0,0,0,0
0.559,0,0.9623,0,0,0,0
0.56,0,0.9554,0,0,0,0
0.561,0,0.94785,0,0,0,0
0.562,0,0.94085,0,0,0,0
0.563,0,0.93475,0,0,0,0
0.564,0,0.93245,0,0,0,0
0.565,0,0.9339,0,0,0,0
0.566,0,0.9359,0,0,0,0
0.567,0,0.93835,0,0,0,0
0.568,0,0.94225,0,0,0,0
0.569,0,0.9477,0,0,0,0
0.57,0,0.9528,0,0,0,0
0.571,0,0.9559,0,0,0,0
0.572,0,0.95655,0,0,0,0
0.573,0,0.95645,0,0,0,0
0.574,0,0.9561,0,0,0,0
0.575,0,0.95365,0,0,0,0
0.576,0,0.9529,0,0,0,0
0.577,0,0.9558,0,0,0,0
0.578,0,0.96025,0,0,0,0
0.579,0,0.9675,0,0,0,0
0.58,0,0.9766,0,0,0,0
0.581,0,0.98415,0,0,0,0
0.582,0,0.99115,0,0,0,0
0.583,0,0.99725,0,0,0,0
0.584,0,1,0,0,0,0
0.585,0,0.9973,0,0,0,0
0.586,0,0.98905,0,0,0,0
0.587,0,0.9767,0,0,0,0
0.588,0,0.96225,0,0,0,0
0.589,0,0.9486,0,0,0,0
0.59,0,0.9393,0,0,0,0
0.591,0,0.9342,0,0,0,0
0.592,0,0.9302,0,0,0,0
0.593,0,0.9262,0,0,0,0
0.594,0,0.9186,0,0,0,0
0.595,0,0.89895,0,0,0,0
0.596,0,0.86095,0,0,0,0
0.597,0,0.80205,0,0,0,0
0.598,0,0.72295,0,0,0,0
0.599,0,0.629,0,0,0,0
0.6,0,0.52855,0,0,0,0
0.601,0,0.43115,0,0,0,0
0.602,0,0.344,0,0,0,0
0.603,0,0.27075,0,0,0,0
0.604,0,0.2125,0,0,0,0
0.605,0,0.16745,0,0,0,0
0.606,0,0.13295,0,0,0,0
0.607,0,0.10665,0,0,0,0
0.608,0,0.08635,0,0,0,0
0.609,0,0.07025,0,0,0,0
0.61,0,0.0575,0,0,0,0
0.611,0,0.0475,0,0,0,0
0.612,0,0.03795,0,0,0,0
0.613,0,0.02985,0.00022,0,0,0
0.614,0,0.02375,0.00032,0,0,0
0.615,0,0.01866,0.00005,0,0,0
0.616,0,0.01425,0.00022,0,0,0
0.617,0,0.01105,0.00054,0,0,0
0.618,0,0.0084,0.00096,0,0,0
0.619,0,0.0061,0.00167,0,0,0
0.62,0,0.0043,0.00245,0,0,0
0.621,0,0.00321,0.00435,0,0,0
0.622,0,0.0022,0.00915,0,0,0
0.623,0,0.00157,0.0184,0,0,0
0.624,0,0.00077,0.0349,0,0,0
0.625,0,0,0.0632,0,0,0
0.626,0,0,0.1073,0,0,0
0.627,0,0,0.1703,0,0,0
0.628,0,0,0.25375,0,0,0
0.629,0,0,0.35685,0,0,0
0.63,0,0,0.4757,0,0,0
0.631,0,0,0.60305,0,0,0
0.632,0,0,0.7253,0,0,0
0.633,0,0,0.82625,0,0,0
0.634,0,0,0.8946,0,0,0
0.635,0,0,0.93,0,0,0
0.636,0,0,0.9419,0,0,0
0.637,0,0,0.94255,0,0,0
0.638,0,0,0.94065,0,0,0
0.639,0,0,0.9381,0,0,0
0.64,0,0,0.9361,0,0,0
0.641,0,0,0.935,0,0,0
0.642,0,0,0.93635,0,0,0
0.643,0,0,0.94025,0,0,0
0.644,0,0,0.9457,0,0,0
0.645,0,0,0.9508,0,0,0
0.646,0,0,0.9566,0,0,0
0.647,0,0,0.96415,0,0,0
0.648,0,0,0.96935,0,0,0
0.649,0,0,0.9719,0,0,0
0.65,0,0,0.97345,0,0,0
0.651,0,0,0.9731,0,0,0
0.652,0,0,0.97065,0,0,0
0.653,0,0,0.9663,0,0,0
0.654,0,0,0.96075,0,0,0
0.655,0,0,0.9571,0,0,0
0.656,0,0,0.95555,0,0,0
0.657,0,0,0.955,0,0,0
0.658,0,0,0.95545,0,0,0
0.659,0,0,0.9587,0,0,0
0.66,0,0,0.96515,0,0,0
0.661,0,0,0.9726,0,0,0
0.662,0,0,0.9797,0,0,0
0.663,0,0,0.98525,0,0,0
0.664,0,0,0.99025,0,0,0
0.665,0,0,0.99435,0,0,0
0.666,0,0,0.99645,0,0,0
0.667,0,0,0.9979,0,0,0
0.668,0,0,0.99945,0,0,0
0.669,0,0,1,0,0,0
0.67,0,0,0.9991,0,0,0
0.671,0,0,0.9971,0,0,0
0.672,0,0,0.99555,0,0,0
0.673,0,0,0.9941,0,0,0
0.674,0,0,0.99255,0,0,0
0.675,0,0,0.99155,0,0,0
0.676,0,0,0.9901,0,0,0
0.677,0,0,0.98855,0,0,0
0.678,0,0,0.9862,0,0,0
0.679,0,0,0.98085,0,0,0
0.68,0,0,0.97385,0,0,0
0.681,0,0,0.9655,0,0,0
0.682,0,0,0.95505,0,0,0
0.683,0,0,0.94495,0,0,0
0.684,0,0,0.9364,0,0,0
0.685,0,0,0.92615,0,0,0
0.686,0,0,0.90955,0,0,0
0.687,0,0,0.88225,0,0,0
0.688,0,0,0.8387,0,0,0
0.689,0,0,0.773,0,0,0
0.69,0,0,0.6822,0,0,0
0.691,0,0,0.57145,0,0,0
0.692,0,0,0.4502,0,0,0
0.693,0,0,0.3325,0,0,0
0.694,0,0,0.23195,0,0,0
0.695,0,0,0.15465,0,0,0
0.696,0,0,0.10155,0,0,0
0.697,0,0,0.0673,0,0,0
0.698,0,0,0.04535,0,0,0
0.699,0,0,0.03105,0,0,0
0.7,0,0,0.02257,0,0,0
0.701,0,0,0.01717,0,0,0
0.702,0,0,0.01236,0,0,0
0.703,0,0,0.00893,0,0,0
0.704,0,0,0.00412,0,0,0
0.705,0,0,0,0,0,0
0.706,0,0,0,0,0,0
0.707,0,0,0,0,0,0
0.708,0,0,0,0,0,0
0.709,0,0,0,0,0,0
0.71,0,0,0,0,0,0
0.711,0,0,0,0,0,0
0.712,0,0,0,0,0,0
0.713,0,0,0,0,0,0
0.714,0,0,0,0,0,0
0.715,0,0,0,0,0,0
0.716,0,0,0,0,0,0
0.717,0,0,0,0,0,0
0.718,0,0,0,0,0,0
0.719,0,0,0,0,0,0
0.72,0,0,0,0,0,0
0.721,0,0,0,0,0,0
0.722,0,0,0,0,0,0
0.723,0,0,0,0,0,0
0.724,0,0,0,0,0,0
0.725,0,0,0,0,0,0
0.726,0,0,0,0,0,0
0.727,0,0,0,0,0,0
0.728,0,0,0,0,0,0
0.729,0,0,0,0,0,0
0.73,0,0,0,0,0,0
0.731,0,0,0,0,0,0
0.732,0,0,0,0,0,0
0.733,0,0,0,0,0,0
0.734,0,0,0,0,0,0
0.735,0,0,0,0.00003,0,0
0.736,0,0,0,0.00011,0,0
0.737,0,0,0,0.0002,0,0
0.738,0,0,0,0.00028,0,0
0.739,0,0,0,0.00036,0,0
0.74,0,0,0,0.0007,0,0
0.741,0,0,0,0.00137,0,0
0.742,0,0,0,0.00201,0,0
0.743,0,0,0,0.00267,0,0
0.744,0,0,0,0.00333,0,0
0.745,0,0,0,0.00345,0,0
0.746,0,0,0,0.00292,0,0
0.747,0,0,0,0.00238,0,0
0.748,0,0,0,0.00184,0,0
0.749,0,0,0,0.0013,0,0
0.75,0,0,0,0.00703,0,0
0.751,0,0,0,0.01611,0,0
0.752,0,0,0,0.01973,0,0
0.753,0,0,0,0.02398,0,0
0.754,0,0,0,0.02897,0,0
0.755,0,0,0,0.03429,0,0
0.756,0,0,0,0.04207,0,0
0.757,0,0,0,0.05136,0,0
0.758,0,0,0,0.06187,0,0
0.759,0,0,0,0.06889,0,0
0.76,0,0,0,0.0753,0,0
0.761,0,0,0,0.0902,0,0
0.762,0,0,0,0.1089,0,0
0.763,0,0,0,0.13225,0,0
0.764,0,0,0,0.15905,0,0
0.765,0,0,0,0.1903,0,0
0.766,0,0,0,0.22655,0,0
0.767,0,0,0,0.2687,0,0
0.768,0,0,0,0.3174,0,0
0.769,0,0,0,0.3712,0,0
0.77,0,0,0,0.42945,0,0
0.771,0,0,0,0.49,0,0
0.772,0,0,0,0.55225,0,0
0.773,0,0,0,0.61545,0,0
0.774,0,0,0,0.6742,0,0
0.775,0,0,0,0.7284,0,0
0.776,0,0,0,0.775,0,0
0.777,0,0,0,0.8105,0,0
0.778,0,0,0,0.8387,0,0
0.779,0,0,0,0.8611,0,0
0.78,0,0,0,0.87685,0,0
0.781,0,0,0,0.8876,0,0
0.782,0,0,0,0.89515,0,0
0.783,0,0,0,0.9008,0,0
0.784,0,0,0,0.90525,0,0
0.785,0,0,0,0.90935,0,0
0.786,0,0,0,0.91325,0,0
0.787,0,0,0,0.9178,0,0
0.788,0,0,0,0.92225,0,0
0.789,0,0,0,0.92545,0,0
0.79,0,0,0,0.92645,0,0
0.791,0,0,0,0.927,0,0
0.792,0,0,0,0.9279,0,0
0.793,0,0,0,0.93035,0,0
0.794,0,0,0,0.9311,0,0
0.795,0,0,0,0.9282,0,0
0.796,0,0,0,0.926,0,0
0.797,0,0,0,0.92555,0,0
0.798,0,0,0,0.92635,0,0
0.799,0,0,0,0.92665,0,0
0.8,0,0,0,0.92545,0,0
0.801,0,0,0,0.9269,0,0
0.802,0,0,0,0.928,0,0
0.803,0,0,0,0.928,0,0
0.804,0,0,0,0.92575,0,0
0.805,0,0,0,0.92165,0,0
0.806,0,0,0,0.91955,0,0
0.807,0,0,0,0.91675,0,0
0.808,0,0,0,0.9122,0,0
0.809,0,0,0,0.9091,0,0
0.81,0,0,0,0.90665,0,0
0.811,0,0,0,0.9041,0,0
0.812,0,0,0,0.90345,0,0
0.813,0,0,0,0.9031,0,0
0.814,0,0,0,0.90515,0,0
0.815,0,0,0,0.9126,0,0
0.816,0,0,0,0.91835,0,0
0.817,0,0,0,0.9236,0,0
0.818,0,0,0,0.9325,0,0
0.819,0,0,0,0.9416,0,0
0.82,0,0,0,0.94915,0,0
0.821,0,0,0,0.95705,0,0
0.822,0,0,0,0.96515,0,0
0.823,0,0,0,0.9699,0,0
0.824,0,0,0,0.971,0,0
0.825,0,0,0,0.97055,0,0
0.826,0,0,0,0.96955,0,0
0.827,0,0,0,0.969,0,0
0.828,0,0,0,0.96945,0,0
0.829,0,0,0,0.96865,0,0
0.83,0,0,0,0.9679,0,0
0.831,0,0,0,0.96855,0,0
0.832,0,0,0,0.96575,0,0
0.833,0,0,0,0.9639,0,0
0.834,0,0,0,0.9659,0,0
0.835,0,0,0,0.9661,0,0
0.836,0,0,0,0.9641,0,0
0.837,0,0,0,0.96075,0,0
0.838,0,0,0,0.9544,0,0
0.839,0,0,0,0.94955,0,0
0.84,0,0,0,0.9463,0,0
0.841,0,0,0,0.9385,0,0
0.842,0,0,0,0.9312,0,0
0.843,0,0,0,0.92855,0,0
0.844,0,0,0,0.92665,0,0
0.845,0,0,0,0.92455,0,0
0.846,0,0,0,0.92535,0,0
0.847,0,0,0,0.92925,0,0
0.848,0,0,0,0.9329,0,0
0.849,0,0,0,0.93805,0,0
0.85,0,0,0,0.94705,0,0
0.851,0,0,0,0.9538,0,0
0.852,0,0,0,0.9605,0,0
0.853,0,0,0,0.97095,0,0
0.854,0,0,0,0.9806,0,0
0.855,0,0,0,0.98725,0,0
0.856,0,0,0,0.9909,0,0
0.857,0,0,0,0.99245,0,0
0.858,0,0,0,0.99345,0,0
0.859,0,0,0,0.9958,0,0
0.86,0,0,0,0.9971,0,0
0.861,0,0,0,0.9942,0,0
0.862,0,0,0,0.99155,0,0
0.863,0,0,0,0.99145,0,0
0.864,0,0,0,0.9929,0,0
0.865,0,0,0,0.99355,0,0
0.866,0,0,0,0.9948,0,0
0.867,0,0,0,0.997,0,0
0.868,0,0,0,0.99655,0,0
0.869,0,0,0,0.9969,0,0
0.87,0,0,0,0.99845,0,0
0.871,0,0,0,0.99945,0,0
0.872,0,0,0,0.99955,0,0
0.873,0,0,0,0.99765,0,0
0.874,0,0,0,0.99375,0,0
0.875,0,0,0,0.99055,0,0
0.876,0,0,0,0.99045,0,0
0.877,0,0,0,0.9883,0,0
0.878,0,0,0,0.98185,0,0
0.879,0,0,0,0.97395,0,0
0.88,0,0,0,0.9627,0,0
0.881,0,0,0,0.9469,0,0
0.882,0,0,0,0.92755,0,0
0.883,0,0,0,0.9052,0,0
0.884,0,0,0,0.8812,0,0
0.885,0,0,0,0.85765,0,0
0.886,0,0,0,0.83555,0,0
0.887,0,0,0,0.81815,0,0
0.888,0,0,0,0.8092,0,0
0.889,0,0,0,0.8124,0,0
0.89,0,0,0,0.8289,0,0
0.891,0,0,0,0.85315,0,0
0.892,0,0,0,0.8788,0,0
0.893,0,0,0,0.892,0,0
0.894,0,0,0,0.8749,0,0
0.895,0,0,0,0.8162,0,0
0.896,0,0,0,0.7133,0,0
0.897,0,0,0,0.57965,0,0
0.898,0,0,0,0.4398,0,0
0.899,0,0,0,0.31595,0,0
0.9,0,0,0,0.22045,0,0
0.901,0,0,0,0.15225,0,0
0.902,0,0,0,0.10535,0,0
0.903,0,0,0,0.0742,0,0
0.904,0,0,0,0.05335,0,0
0.905,0,0,0,0.0386,0,0
0.906,0,0,0,0.02885,0,0
0.907,0,0,0,0.0223,0,0
0.908,0,0,0,0.01675,0,0
0.909,0,0,0,0.01265,0,0
0.91,0,0,0,0.01086,0,0
0.911,0,0,0,0.00949,0,0
0.912,0,0,0,0.00714,0,0
0.913,0,0,0,0.0057,0,0
0.914,0,0,0,0.00286,0,0
0.915,0,0,0,0,0,0
0.916,0,0,0,0,0,0
0.917,0,0,0,0,0,0
0.918,0,0,0,0,0,0
0.919,0,0,0,0,0,0
0.92,0,0,0,0,0,0
0.921,0,0,0,0,0,0
0.922,0,0,0,0,0,0
0.923,0,0,0,0,0,0
0.924,0,0,0,0,0,0
0.925,0,0,0,0,0,0
0.926,0,0,0,0,0,0
0.927,0,0,0,0,0,0
0.928,0,0,0,0,0,0
0.929,0,0,0,0,0,0
0.93,0,0,0,0,0,0
0.931,0,0,0,0,0,0
0.932,0,0,0,0,0,0
0.933,0,0,0,0,0,0
0.934,0,0,0,0,0,0
0.935,0,0,0,0,0,0
0.936,0,0,0,0,0,0
0.937,0,0,0,0,0,0
0.938,0,0,0,0,0,0
0.939,0,0,0,0,0,0
0.94,0,0,0,0,0,0
0.941,0,0,0,0,0,0
0.942,0,0,0,0,0,0
0.943,0,0,0,0,0,0
0.944,0,0,0,0,0,0
0.945,0,0,0,0,0,0
0.946,0,0,0,0,0,0
0.947,0,0,0,0,0,0
0.948,0,0,0,0,0,0
0.949,0,0,0,0,0,0
0.95,0,0,0,0,0,0
0.951,0,0,0,0,0,0
0.952,0,0,0,0,0,0
0.953,0,0,0,0,0,0
0.954,0,0,0,0,0,0
0.955,0,0,0,0,0,0
0.956,0,0,0,0,0,0
0.957,0,0,0,0,0,0
0.958,0,0,0,0,0,0
0.959,0,0,0,0,0,0
0.96,0,0,0,0,0,0
0.961,0,0,0,0,0,0
0.962,0,0,0,0,0,0
0.963,0,0,0,0,0,0
0.964,0,0,0,0,0,0
0.965,0,0,0,0,0,0
0.966,0,0,0,0,0,0
0.967,0,0,0,0,0,0
0.968,0,0,0,0,0,0
0.969,0,0,0,0,0,0
0.97,0,0,0,0,0,0
0.971,0,0,0,0,0,0
0.972,0,0,0,0,0,0
0.973,0,0,0,0,0,0
0.974,0,0,0,0,0,0
0.975,0,0,0,0,0,0
0.976,0,0,0,0,0,0
0.977,0,0,0,0,0,0
0.978,0,0,0,0,0,0
0.979,0,0,0,0,0,0
0.98,0,0,0,0,0,0
0.981,0,0,0,0,0,0
0.982,0,0,0,0,0,0
0.983,0,0,0,0,0,0
0.984,0,0,0,0,0,0
0.985,0,0,0,0,0,0
0.986,0,0,0,0,0,0
0.987,0,0,0,0,0,0
0.988,0,0,0,0,0,0
0.989,0,0,0,0,0,0
0.99,0,0,0,0,0,0
0.991,0,0,0,0,0,0
0.992,0,0,0,0,0,0
0.993,0,0,0,0,0,0
0.994,0,0,0,0,0,0
0.995,0,0,0,0,0,0
0.996,0,0,0,0,0,0
0.997,0,0,0,0,0,0
0.998,0,0,0,0,0,0
0.999,0,0,0,0,0,0
1,0,0,0,0,0,0
1.001,0,0,0,0,0,0
1.002,0,0,0,0,0,0
1.003,0,0,0,0,0,0
1.004,0,0,0,0,0,0
1.005,0,0,0,0,0,0
1.006,0,0,0,0,0,0
1.007,0,0,0,0,0,0
1.008,0,0,0,0,0,0
1.009,0,0,0,0,0,0
1.01,0,0,0,0,0,0
1.011,0,0,0,0,0,0
1.012,0,0,0,0,0,0
1.013,0,0,0,0,0,0
1.014,0,0,0,0,0,0
1.015,0,0,0,0,0,0
1.016,0,0,0,0,0,0
1.017,0,0,0,0,0,0
1.018,0,0,0,0,0,0
1.019,0,0,0,0,0,0
1.02,0,0,0,0,0,0
1.021,0,0,0,0,0,0
1.022,0,0,0,0,0,0
1.023,0,0,0,0,0,0
1.024,0,0,0,0,0,0
1.025,0,0,0,0,0,0
1.026,0,0,0,0,0,0
1.027,0,0,0,0,0,0
1.028,0,0,0,0,0,0
1.029,0,0,0,0,0,0
1.03,0,0,0,0,0,0
1.031,0,0,0,0,0,0
1.032,0,0,0,0,0,0
1.033,0,0,0,0,0,0
1.034,0,0,0,0,0,0
1.035,0,0,0,0,0,0
1.036,0,0,0,0,0,0
1.037,0,0,0,0,0,0
1.038,0,0,0,0,0,0
1.039,0,0,0,0,0,0
1.04,0,0,0,0,0,0
1.041,0,0,0,0,0,0
1.042,0,0,0,0,0,0
1.043,0,0,0,0,0,0
1.044,0,0,0,0,0,0
1.045,0,0,0,0,0,0
1.046,0,0,0,0,0,0
1.047,0,0,0,0,0,0
1.048,0,0,0,0,0,0
1.049,0,0,0,0,0,0
1.05,0,0,0,0,0,0
1.051,0,0,0,0,0,0
1.052,0,0,0,0,0,0
1.053,0,0,0,0,0,0
1.054,0,0,0,0,0,0
1.055,0,0,0,0,0,0
1.056,0,0,0,0,0,0
1.057,0,0,0,0,0,0
1.058,0,0,0,0,0,0
1.059,0,0,0,0,0,0
1.06,0,0,0,0,0,0
1.061,0,0,0,0,0,0
1.062,0,0,0,0,0,0
1.063,0,0,0,0,0,0
1.064,0,0,0,0,0,0
1.065,0,0,0,0,0,0
1.066,0,0,0,0,0,0
1.067,0,0,0,0,0,0
1.068,0,0,0,0,0,0
1.069,0,0,0,0,0,0
1.07,0,0,0,0,0,0
1.071,0,0,0,0,0,0
1.072,0,0,0,0,0,0
1.073,0,0,0,0,0,0
1.074,0,0,0,0,0,0
1.075,0,0,0,0,0,0
1.076,0,0,0,0,0,0
1.077,0,0,0,0,0,0
1.078,0,0,0,0,0,0
1.079,0,0,0,0,0,0
1.08,0,0,0,0,0,0
1.081,0,0,0,0,0,0
1.082,0,0,0,0,0,0
1.083,0,0,0,0,0,0
1.084,0,0,0,0,0,0
1.085,0,0,0,0,0,0
1.086,0,0,0,0,0,0
1.087,0,0,0,0,0,0
1.088,0,0,0,0,0,0
1.089,0,0,0,0,0,0
1.09,0,0,0,0,0,0
1.091,0,0,0,0,0,0
1.092,0,0,0,0,0,0
1.093,0,0,0,0,0,0
1.094,0,0,0,0,0,0
1.095,0,0,0,0,0,0
1.096,0,0,0,0,0,0
1.097,0,0,0,0,0,0
1.098,0,0,0,0,0,0
1.099,0,0,0,0,0,0
1.1,0,0,0,0,0,0
1.101,0,0,0,0,0,0
1.102,0,0,0,0,0,0
1.103,0,0,0,0,0,0
1.104,0,0,0,0,0,0
1.105,0,0,0,0,0,0
1.106,0,0,0,0,0,0
1.107,0,0,0,0,0,0
1.108,0,0,0,0,0,0
1.109,0,0,0,0,0,0
1.11,0,0,0,0,0,0
1.111,0,0,0,0,0,0
1.112,0,0,0,0,0,0
1.113,0,0,0,0,0,0
1.114,0,0,0,0,0,0
1.115,0,0,0,0,0,0
1.116,0,0,0,0,0,0
1.117,0,0,0,0,0,0
1.118,0,0,0,0,0,0
1.119,0,0,0,0,0,0
1.12,0,0,0,0,0,0
1.121,0,0,0,0,0,0
1.122,0,0,0,0,0,0
1.123,0,0,0,0,0,0
1.124,0,0,0,0,0,0
1.125,0,0,0,0,0,0
1.126,0,0,0,0,0,0
1.127,0,0,0,0,0,0
1.128,0,0,0,0,0,0
1.129,0,0,0,0,0,0
1.13,0,0,0,0,0,0
1.131,0,0,0,0,0,0
1.132,0,0,0,0,0,0
1.133,0,0,0,0,0,0
1.134,0,0,0,0,0,0
1.135,0,0,0,0,0,0
1.136,0,0,0,0,0,0
1.137,0,0,0,0,0,0
1.138,0,0,0,0,0,0
1.139,0,0,0,0,0,0
1.14,0,0,0,0,0,0
1.141,0,0,0,0,0,0
1.142,0,0,0,0,0,0
1.143,0,0,0,0,0,0
1.144,0,0,0,0,0,0
1.145,0,0,0,0,0,0
1.146,0,0,0,0,0,0
1.147,0,0,0,0,0,0
1.148,0,0,0,0,0,0
1.149,0,0,0,0,0,0
1.15,0,0,0,0,0,0
1.151,0,0,0,0,0,0
1.152,0,0,0,0,0,0
1.153,0,0,0,0,0,0
1.154,0,0,0,0,0,0
1.155,0,0,0,0,0,0
1.156,0,0,0,0,0,0
1.157,0,0,0,0,0,0
1.158,0,0,0,0,0,0
1.159,0,0,0,0,0,0
1.16,0,0,0,0,0,0
1.161,0,0,0,0,0,0
1.162,0,0,0,0,0,0
1.163,0,0,0,0,0,0
1.164,0,0,0,0,0,0
1.165,0,0,0,0,0,0
1.166,0,0,0,0,0,0
1.167,0,0,0,0,0,0
1.168,0,0,0,0,0,0
1.169,0,0,0,0,0,0
1.17,0,0,0,0,0,0
1.171,0,0,0,0,0,0
1.172,0,0,0,0,0,0
1.173,0,0,0,0,0,0
1.174,0,0,0,0,0,0
1.175,0,0,0,0,0,0
1.176,0,0,0,0,0,0
1.177,0,0,0,0,0,0
1.178,0,0,0,0,0,0
1.179,0,0,0,0,0,0
1.18,0,0,0,0,0,0
1.181,0,0,0,0,0,0
1.182,0,0,0,0,0,0
1.183,0,0,0,0,0,0
1.184,0,0,0,0,0,0
1.185,0,0,0,0,0,0
1.186,0,0,0,0,0,0
1.187,0,0,0,0,0,0
1.188,0,0,0,0,0,0
1.189,0,0,0,0,0,0
1.19,0,0,0,0,0,0
1.191,0,0,0,0,0,0
1.192,0,0,0,0,0,0
1.193,0,0,0,0,0,0
1.194,0,0,0,0,0,0
1.195,0,0,0,0,0,0
1.196,0,0,0,0,0,0
1.197,0,0,0,0,0,0
1.198,0,0,0,0,0,0
1.199,0,0,0,0,0,0
1.2,0,0,0,0,0,0
1.201,0,0,0,0,0,0
1.202,0,0,0,0,0,0
1.203,0,0,0,0,0,0
1.204,0,0,0,0,0,0
1.205,0,0,0,0,0,0
1.206,0,0,0,0,0,0
1.207,0,0,0,0,0,0
1.208,0,0,0,0,0,0
1.209,0,0,0,0,0,0
1.21,0,0,0,0,0,0
1.211,0,0,0,0,0,0
1.212,0,0,0,0,0,0
1.213,0,0,0,0,0,0
1.214,0,0,0,0,0,0
1.215,0,0,0,0,0,0
1.216,0,0,0,0,0,0
1.217,0,0,0,0,0,0
1.218,0,0,0,0,0,0
1.219,0,0,0,0,0,0
1.22,0,0,0,0,0,0
1.221,0,0,0,0,0,0
1.222,0,0,0,0,0,0
1.223,0,0,0,0,0,0
1.224,0,0,0,0,0,0
1.225,0,0,0,0,0,0
1.226,0,0,0,0,0,0
1.227,0,0,0,0,0,0
1.228,0,0,0,0,0,0
1.229,0,0,0,0,0,0
1.23,0,0,0,0,0,0
1.231,0,0,0,0,0,0
1.232,0,0,0,0,0,0
1.233,0,0,0,0,0,0
1.234,0,0,0,0,0,0
1.235,0,0,0,0,0,0
1.236,0,0,0,0,0,0
1.237,0,0,0,0,0,0
1.238,0,0,0,0,0,0
1.239,0,0,0,0,0,0
1.24,0,0,0,0,0,0
1.241,0,0,0,0,0,0
1.242,0,0,0,0,0,0
1.243,0,0,0,0,0,0
1.244,0,0,0,0,0,0
1.245,0,0,0,0,0,0
1.246,0,0,0,0,0,0
1.247,0,0,0,0,0,0
1.248,0,0,0,0,0,0
1.249,0,0,0,0,0,0
1.25,0,0,0,0,0,0
1.251,0,0,0,0,0,0
1.252,0,0,0,0,0,0
1.253,0,0,0,0,0,0
1.254,0,0,0,0,0,0
1.255,0,0,0,0,0,0
1.256,0,0,0,0,0,0
1.257,0,0,0,0,0,0
1.258,0,0,0,0,0,0
1.259,0,0,0,0,0,0
1.26,0,0,0,0,0,0
1.261,0,0,0,0,0,0
1.262,0,0,0,0,0,0
1.263,0,0,0,0,0,0
1.264,0,0,0,0,0,0
1.265,0,0,0,0,0,0
1.266,0,0,0,0,0,0
1.267,0,0,0,0,0,0
1.268,0,0,0,0,0,0
1.269,0,0,0,0,0,0
1.27,0,0,0,0,0,0
1.271,0,0,0,0,0,0
1.272,0,0,0,0,0,0
1.273,0,0,0,0,0,0
1.274,0,0,0,0,0,0
1.275,0,0,0,0,0,0
1.276,0,0,0,0,0,0
1.277,0,0,0,0,0,0
1.278,0,0,0,0,0,0
1.279,0,0,0,0,0,0
1.28,0,0,0,0,0,0
1.281,0,0,0,0,0,0
1.282,0,0,0,0,0,0
1.283,0,0,0,0,0,0
1.284,0,0,0,0,0,0
1.285,0,0,0,0,0,0
1.286,0,0,0,0,0,0
1.287,0,0,0,0,0,0
1.288,0,0,0,0,0,0
1.289,0,0,0,0,0,0
1.29,0,0,0,0,0,0
1.291,0,0,0,0,0,0
1.292,0,0,0,0,0,0
1.293,0,0,0,0,0,0
1.294,0,0,0,0,0,0
1.295,0,0,0,0,0,0
1.296,0,0,0,0,0,0
1.297,0,0,0,0,0,0
1.298,0,0,0,0,0,0
1.299,0,0,0,0,0,0
1.3,0,0,0,0,0,0
1.301,0,0,0,0,0,0
1.302,0,0,0,0,0,0
1.303,0,0,0,0,0,0
1.304,0,0,0,0,0,0
1.305,0,0,0,0,0,0
1.306,0,0,0,0,0,0
1.307,0,0,0,0,0,0
1.308,0,0,0,0,0,0
1.309,0,0,0,0,0,0
1.31,0,0,0,0,0,0
1.311,0,0,0,0,0,0
1.312,0,0,0,0,0,0
1.313,0,0,0,0,0,0
1.314,0,0,0,0,0,0
1.315,0,0,0,0,0,0
1.316,0,0,0,0,0,0
1.317,0,0,0,0,0,0
1.318,0,0,0,0,0,0
1.319,0,0,0,0,0,0
1.32,0,0,0,0,0,0
1.321,0,0,0,0,0,0
1.322,0,0,0,0,0,0
1.323,0,0,0,0,0,0
1.324,0,0,0,0,0,0
1.325,0,0,0,0,0,0
1.326,0,0,0,0,0,0
1.327,0,0,0,0,0,0
1.328,0,0,0,0,0,0
1.329,0,0,0,0,0,0
1.33,0,0,0,0,0,0
1.331,0,0,0,0,0,0
1.332,0,0,0,0,0,0
1.333,0,0,0,0,0,0
1.334,0,0,0,0,0,0
1.335,0,0,0,0,0,0
1.336,0,0,0,0,0,0
1.337,0,0,0,0,0,0
1.338,0,0,0,0,0,0
1.339,0,0,0,0,0,0
1.34,0,0,0,0,0,0
1.341,0,0,0,0,0,0
1.342,0,0,0,0,0,0
1.343,0,0,0,0,0,0
1.344,0,0,0,0,0,0
1.345,0,0,0,0,0,0
1.346,0,0,0,0,0,0
1.347,0,0,0,0,0,0
1.348,0,0,0,0,0,0
1.349,0,0,0,0,0,0
1.35,0,0,0,0,0,0
1.351,0,0,0,0,0,0
1.352,0,0,0,0,0,0
1.353,0,0,0,0,0,0
1.354,0,0,0,0,0,0
1.355,0,0,0,0,0,0
1.356,0,0,0,0,0,0
1.357,0,0,0,0,0,0
1.358,0,0,0,0,0,0
1.359,0,0,0,0,0,0
1.36,0,0,0,0,0,0
1.361,0,0,0,0,0,0
1.362,0,0,0,0,0,0
1.363,0,0,0,0,0,0
1.364,0,0,0,0,0,0
1.365,0,0,0,0,0,0
1.366,0,0,0,0,0,0
1.367,0,0,0,0,0,0
1.368,0,0,0,0,0,0
1.369,0,0,0,0,0,0
